BEGIN_SCAN_DATA
	FORMAT=CC-Export V1.9                  
	FILE_CREATION_DATE=31-Jan-2023 17:03:52
	LAST_MODIFIED=31-Jan-2023 17:03:52
	BEGIN_SCAN  1
		TASK_NAME=tba PDD Profiles
		PROGRAM=WaterTankScans
		MEAS_DATE=31-Jan-2023 17:01:26
		LINAC=IX
		MODALITY=X
		ISOCENTER=-99999.00
		INPLANE_AXIS_DIR=TARGET_GUN
		CROSSPLANE_AXIS_DIR=LEFT_RIGHT
		DEPTH_AXIS_DIR=UP_DOWN
		ENERGY=6.00
		SSD=1000.00
		BLOCK=0
		WEDGE_ANGLE=0.00
		FIELD_INPLANE=100.00
		FIELD_CROSSPLANE=100.00
		FIELD_TYPE=RECTANGULAR
		GANTRY=0.00
		GANTRY_UPRIGHT_POSITION=0
		GANTRY_ROTATION=CW
		COLL_ANGLE=0.00
		COLL_OFFSET_INPLANE=0.00
		COLL_OFFSET_CROSSPLANE=0.00
		SCAN_DEVICE=BeamScan
		SCAN_DEVICE_SETUP=BARA_LEFT_RIGHT
		ELECTROMETER=BeamScan
		RANGE_FIELD=MEDIUM
		RANGE_REFERENCE=LOW
		DETECTOR=THIMBLE_CHAMBER
		DETECTOR_SUBCODE=SEMIFLEX
		DETECTOR_RADIUS=2.75
		DETECTOR_NAME=PTW 31010 Semiflex 1822
		DETECTOR_SN=1822
		DETECTOR_CALIBRATION=306000000.00
		DETECTOR_IS_CALIBRATED=1
		DETECTOR_REFERENCE=THIMBLE_CHAMBER
		DETECTOR_REFERENCE_RADIUS=1.45
		DETECTOR_REFERENCE_NAME=PTW 31022 PinPoint 3D
		DETECTOR_REFERENCE_SN=152342
		DETECTOR_REFERENCE_IS_CALIBRATED=1
		DETECTOR_REFERENCE_CALIBRATION=2639000064.00
		DETECTOR_HV=400.0
		DETECTOR_REFERENCE_HV=300.0
		DETECTOR_ORIENTATION=HORIZONTAL
		FILTER=FF
		SCAN_SPEED_PROFILE=5.00
		SCAN_PROF_SPEED_DEP=NONE
		SCAN_SPEED_PDD=5.00
		SCAN_PDD_SPEED_DEP=NONE
		DETECTOR_TYPE=T31010
		REF_FIELD_DEPTH=0.00
		REF_FIELD_DEFINED=WATER_SURFACE
		REF_FIELD_INPLANE=100.00
		REF_FIELD_CROSSPLANE=100.00
		REF_SCAN_POSITIONS=0.00;1.00;2.00;3.00;4.00;5.00;6.00;7.00;8.00;9.00;10.00;11.00;12.00;13.00;14.00;15.00;16.00;17.00;18.00;19.00;20.00;21.00;22.00;23.00;24.00;25.00;26.00;27.00;28.00;29.00;30.00;31.00;32.00;33.00;34.00;35.00;36.00;37.00;38.00;39.00;40.00;41.00;42.00;43.00;44.00;45.00;46.00;47.00;48.00;49.00;50.00;51.00;52.00;53.00;54.00;55.00;56.00;57.00;58.00;59.00;60.00;61.00;62.00;63.00;64.00;65.00;66.00;67.00;68.00;69.00;70.00;71.00;72.00;73.00;74.00;75.00;76.00;77.00;78.00;79.00;80.00;81.00;82.00;83.00;84.00;85.00;86.00;87.00;88.00;89.00;90.00;91.00;92.00;93.00;94.00;95.00;96.00;97.00;98.00;99.00;100.00;101.00;102.00;103.00;104.00;105.00;106.00;107.00;108.00;109.00;110.00;111.00;112.00;113.00;114.00;115.00;116.00;117.00;118.00;119.00;120.00;121.00;122.00;123.00;124.00;125.00;126.00;127.00;128.00;129.00;130.00;131.00;132.00;133.00;134.00;135.00;136.00;137.00;138.00;139.00;140.00;141.00;142.00;143.00;144.00;145.00;146.00;147.00;148.00;149.00;150.00;151.00;152.00;153.00;154.00;155.00;156.00;157.00;158.00;159.00;160.00;161.00;162.00;163.00;164.00;165.00;166.00;167.00;168.00;169.00;170.00;171.00;172.00;173.00;174.00;175.00;176.00;177.00;178.00;179.00;180.00;181.00;182.00;183.00;184.00;185.00;186.00;187.00;188.00;189.00;190.00;191.00;192.00;193.00;194.00;195.00;196.00;197.00;198.00;199.00;200.00;201.00;202.00;203.00;204.00;205.00;206.00;207.00;208.00;209.00;210.00;211.00;212.00;213.00;214.00;215.00;216.00;217.00;218.00;219.00;220.00;221.00;222.00;223.00;224.00;225.00;226.00;227.00;228.00;229.00;230.00;231.00;232.00;233.00;234.00;235.00;236.00;237.00;238.00;239.00;240.00;241.00;242.00;243.00;244.00;245.00;246.00;247.00;248.00;249.00;250.00;251.00;252.00;253.00;254.00;255.00;256.00;257.00;258.00;259.00;260.00;261.00;262.00;263.00;264.00;265.00;266.00;267.00;268.00;269.00;270.00;271.00;272.00;273.00;274.00;275.00;276.00;277.00;278.00;279.00;280.00;281.00;282.00;283.00;284.00;285.00;286.00;287.00;288.00;289.00;290.00;291.00;292.00;293.00;294.00;295.00;296.00;297.00;298.00;299.00;300.00;
		SCAN_CURVETYPE=PDD
		SCAN_OFFAXIS_INPLANE=0.00
		SCAN_OFFAXIS_CROSSPLANE=0.00
		SCAN_ANGLE=0.00
		SCAN_DIAGONAL=NOT_DIAGONAL
		SCAN_DIRECTION=NEGATIVE
		MEAS_MEDIUM=WATER
		MEAS_PRESET=MEAS_CONTINUOUS_REFERENCE_SCAN
		MEAS_TIME=0.200
		MEAS_UNIT=A.U.
		PRESSURE=1013.20
		TEMPERATURE=20.00
		NORM_TEMPERATURE=20.00
		CORRECTION_FACTOR=1.0000
		EXPECTED_MAX_DOSE_RATE=4.00
		EPOM_DEPTH_SHIFT=0.0
		EPOM_MODE=TRUFIX
		BEGIN_DATA
			0.00		1.0499E+00		1.7751E+00
			1.00		1.1111E+00		1.7814E+00
			2.00		1.2214E+00		1.7814E+00
			3.00		1.4001E+00		1.7862E+00
			4.00		1.5598E+00		1.7846E+00
			5.00		1.6709E+00		1.7846E+00
			6.00		1.7527E+00		1.7862E+00
			7.00		1.8118E+00		1.7846E+00
			8.00		1.8652E+00		1.7798E+00
			9.00		1.8952E+00		1.7719E+00
			10.00		1.9184E+00		1.7782E+00
			11.00		1.9370E+00		1.7782E+00
			12.00		1.9374E+00		1.7798E+00
			13.00		1.9415E+00		1.7798E+00
			14.00		1.9505E+00		1.7735E+00
			15.00		1.9477E+00		1.7798E+00
			16.00		1.9481E+00		1.7767E+00
			17.00		1.9415E+00		1.7798E+00
			18.00		1.9356E+00		1.7814E+00
			19.00		1.9257E+00		1.7830E+00
			20.00		1.9257E+00		1.7782E+00
			21.00		1.9147E+00		1.7798E+00
			22.00		1.8986E+00		1.7862E+00
			23.00		1.8979E+00		1.7830E+00
			24.00		1.8909E+00		1.7798E+00
			25.00		1.8764E+00		1.7877E+00
			26.00		1.8659E+00		1.7909E+00
			27.00		1.8674E+00		1.7767E+00
			28.00		1.8565E+00		1.7782E+00
			29.00		1.8460E+00		1.7814E+00
			30.00		1.8404E+00		1.7798E+00
			31.00		1.8451E+00		1.7703E+00
			32.00		1.8212E+00		1.7814E+00
			33.00		1.8120E+00		1.7814E+00
			34.00		1.8103E+00		1.7719E+00
			35.00		1.8039E+00		1.7751E+00
			36.00		1.7894E+00		1.7782E+00
			37.00		1.7954E+00		1.7672E+00
			38.00		1.7781E+00		1.7751E+00
			39.00		1.7682E+00		1.7767E+00
			40.00		1.7568E+00		1.7798E+00
			41.00		1.7481E+00		1.7814E+00
			42.00		1.7450E+00		1.7782E+00
			43.00		1.7295E+00		1.7846E+00
			44.00		1.7290E+00		1.7767E+00
			45.00		1.7217E+00		1.7767E+00
			46.00		1.7049E+00		1.7877E+00
			47.00		1.7062E+00		1.7767E+00
			48.00		1.6970E+00		1.7798E+00
			49.00		1.6887E+00		1.7798E+00
			50.00		1.6750E+00		1.7846E+00
			51.00		1.6677E+00		1.7814E+00
			52.00		1.6642E+00		1.7719E+00
			53.00		1.6519E+00		1.7751E+00
			54.00		1.6380E+00		1.7846E+00
			55.00		1.6357E+00		1.7814E+00
			56.00		1.6264E+00		1.7814E+00
			57.00		1.6190E+00		1.7782E+00
			58.00		1.6114E+00		1.7798E+00
			59.00		1.6011E+00		1.7798E+00
			60.00		1.5893E+00		1.7814E+00
			61.00		1.5825E+00		1.7798E+00
			62.00		1.5780E+00		1.7814E+00
			63.00		1.5697E+00		1.7814E+00
			64.00		1.5646E+00		1.7767E+00
			65.00		1.5546E+00		1.7798E+00
			66.00		1.5516E+00		1.7751E+00
			67.00		1.5422E+00		1.7751E+00
			68.00		1.5299E+00		1.7798E+00
			69.00		1.5254E+00		1.7767E+00
			70.00		1.5111E+00		1.7862E+00
			71.00		1.5160E+00		1.7719E+00
			72.00		1.4933E+00		1.7877E+00
			73.00		1.4856E+00		1.7909E+00
			74.00		1.4898E+00		1.7735E+00
			75.00		1.4733E+00		1.7846E+00
			76.00		1.4661E+00		1.7846E+00
			77.00		1.4621E+00		1.7782E+00
			78.00		1.4507E+00		1.7846E+00
			79.00		1.4432E+00		1.7798E+00
			80.00		1.4398E+00		1.7751E+00
			81.00		1.4334E+00		1.7767E+00
			82.00		1.4242E+00		1.7830E+00
			83.00		1.4187E+00		1.7782E+00
			84.00		1.4117E+00		1.7767E+00
			85.00		1.4017E+00		1.7814E+00
			86.00		1.3921E+00		1.7846E+00
			87.00		1.3877E+00		1.7782E+00
			88.00		1.3852E+00		1.7735E+00
			89.00		1.3713E+00		1.7862E+00
			90.00		1.3646E+00		1.7814E+00
			91.00		1.3528E+00		1.7862E+00
			92.00		1.3469E+00		1.7830E+00
			93.00		1.3392E+00		1.7782E+00
			94.00		1.3356E+00		1.7830E+00
			95.00		1.3297E+00		1.7798E+00
			96.00		1.3237E+00		1.7782E+00
			97.00		1.3119E+00		1.7830E+00
			98.00		1.3046E+00		1.7846E+00
			99.00		1.2975E+00		1.7830E+00
			100.00		1.2966E+00		1.7814E+00
			101.00		1.2899E+00		1.7751E+00
			102.00		1.2783E+00		1.7782E+00
			103.00		1.2689E+00		1.7798E+00
			104.00		1.2649E+00		1.7767E+00
			105.00		1.2564E+00		1.7814E+00
			106.00		1.2545E+00		1.7782E+00
			107.00		1.2442E+00		1.7782E+00
			108.00		1.2401E+00		1.7767E+00
			109.00		1.2349E+00		1.7782E+00
			110.00		1.2222E+00		1.7877E+00
			111.00		1.2150E+00		1.7877E+00
			112.00		1.2119E+00		1.7893E+00
			113.00		1.2026E+00		1.7893E+00
			114.00		1.1975E+00		1.7893E+00
			115.00		1.1924E+00		1.7862E+00
			116.00		1.1863E+00		1.7830E+00
			117.00		1.1750E+00		1.7830E+00
			118.00		1.1688E+00		1.7735E+00
			119.00		1.1626E+00		1.7672E+00
			120.00		1.1585E+00		1.7640E+00
			121.00		1.1513E+00		1.7782E+00
			122.00		1.1451E+00		1.7830E+00
			123.00		1.1430E+00		1.7798E+00
			124.00		1.1348E+00		1.7830E+00
			125.00		1.1226E+00		1.7893E+00
			126.00		1.1235E+00		1.7814E+00
			127.00		1.1163E+00		1.7846E+00
			128.00		1.1110E+00		1.7798E+00
			129.00		1.1058E+00		1.7782E+00
			130.00		1.0940E+00		1.7925E+00
			131.00		1.0937E+00		1.7862E+00
			132.00		1.0895E+00		1.7830E+00
			133.00		1.0813E+00		1.7830E+00
			134.00		1.0703E+00		1.7909E+00
			135.00		1.0710E+00		1.7830E+00
			136.00		1.0631E+00		1.7893E+00
			137.00		1.0515E+00		1.8020E+00
			138.00		1.0497E+00		1.7893E+00
			139.00		1.0408E+00		1.7941E+00
			140.00		1.0374E+00		1.7893E+00
			141.00		1.0332E+00		1.7735E+00
			142.00		1.0229E+00		1.7735E+00
			143.00		1.0178E+00		1.7624E+00
			144.00		1.0120E+00		1.7545E+00
			145.00		1.0078E+00		1.7545E+00
			146.00		999.13E-03		1.7513E+00
			147.00		995.66E-03		1.7703E+00
			148.00		993.00E-03		1.7751E+00
			149.00		985.34E-03		1.7814E+00
			150.00		983.12E-03		1.7798E+00
			151.00		979.55E-03		1.7751E+00
			152.00		970.58E-03		1.7782E+00
			153.00		964.22E-03		1.7862E+00
			154.00		963.17E-03		1.7767E+00
			155.00		956.48E-03		1.7814E+00
			156.00		949.08E-03		1.7798E+00
			157.00		950.03E-03		1.7703E+00
			158.00		944.00E-03		1.7719E+00
			159.00		935.47E-03		1.7782E+00
			160.00		930.51E-03		1.7798E+00
			161.00		925.15E-03		1.7782E+00
			162.00		923.48E-03		1.7735E+00
			163.00		913.19E-03		1.7814E+00
			164.00		907.46E-03		1.7846E+00
			165.00		903.69E-03		1.7798E+00
			166.00		899.10E-03		1.7767E+00
			167.00		891.00E-03		1.7846E+00
			168.00		891.07E-03		1.7782E+00
			169.00		885.18E-03		1.7735E+00
			170.00		877.62E-03		1.7846E+00
			171.00		875.58E-03		1.7782E+00
			172.00		869.39E-03		1.7782E+00
			173.00		865.26E-03		1.7782E+00
			174.00		858.30E-03		1.7798E+00
			175.00		858.26E-03		1.7735E+00
			176.00		854.12E-03		1.7735E+00
			177.00		849.22E-03		1.7751E+00
			178.00		835.68E-03		1.7972E+00
			179.00		836.92E-03		1.7814E+00
			180.00		831.63E-03		1.7751E+00
			181.00		821.46E-03		1.7814E+00
			182.00		819.83E-03		1.7782E+00
			183.00		814.14E-03		1.7862E+00
			184.00		813.63E-03		1.7782E+00
			185.00		808.47E-03		1.7782E+00
			186.00		804.34E-03		1.7782E+00
			187.00		798.79E-03		1.7814E+00
			188.00		794.28E-03		1.7846E+00
			189.00		793.63E-03		1.7814E+00
			190.00		787.41E-03		1.7862E+00
			191.00		782.25E-03		1.7909E+00
			192.00		779.54E-03		1.7830E+00
			193.00		770.96E-03		1.7814E+00
			194.00		768.53E-03		1.7703E+00
			195.00		763.29E-03		1.7608E+00
			196.00		761.30E-03		1.7751E+00
			197.00		754.16E-03		1.7846E+00
			198.00		757.48E-03		1.7719E+00
			199.00		749.92E-03		1.7751E+00
			200.00		744.75E-03		1.7751E+00
			201.00		740.98E-03		1.7767E+00
			202.00		734.88E-03		1.7814E+00
			203.00		731.79E-03		1.7814E+00
			204.00		729.62E-03		1.7767E+00
			205.00		725.09E-03		1.7751E+00
			206.00		721.35E-03		1.7767E+00
			207.00		714.27E-03		1.7814E+00
			208.00		710.78E-03		1.7798E+00
			209.00		707.28E-03		1.7782E+00
			210.00		704.99E-03		1.7814E+00
			211.00		699.65E-03		1.7767E+00
			212.00		699.23E-03		1.7751E+00
			213.00		692.01E-03		1.7830E+00
			214.00		689.51E-03		1.7735E+00
			215.00		683.77E-03		1.7830E+00
			216.00		679.83E-03		1.7798E+00
			217.00		675.10E-03		1.7814E+00
			218.00		674.07E-03		1.7814E+00
			219.00		669.68E-03		1.7767E+00
			220.00		666.57E-03		1.7767E+00
			221.00		662.88E-03		1.7782E+00
			222.00		658.31E-03		1.7767E+00
			223.00		655.07E-03		1.7798E+00
			224.00		652.82E-03		1.7719E+00
			225.00		648.55E-03		1.7751E+00
			226.00		644.87E-03		1.7767E+00
			227.00		641.09E-03		1.7814E+00
			228.00		638.00E-03		1.7814E+00
			229.00		633.41E-03		1.7798E+00
			230.00		629.28E-03		1.7798E+00
			231.00		625.63E-03		1.7814E+00
			232.00		621.03E-03		1.7798E+00
			233.00		619.18E-03		1.7703E+00
			234.00		614.42E-03		1.7751E+00
			235.00		611.80E-03		1.7767E+00
			236.00		609.24E-03		1.7751E+00
			237.00		606.09E-03		1.7782E+00
			238.00		600.97E-03		1.7751E+00
			239.00		600.47E-03		1.7735E+00
			240.00		596.30E-03		1.7767E+00
			241.00		591.62E-03		1.7814E+00
			242.00		586.96E-03		1.7862E+00
			243.00		585.43E-03		1.7814E+00
			244.00		582.87E-03		1.7767E+00
			245.00		578.73E-03		1.7798E+00
			246.00		575.65E-03		1.7830E+00
			247.00		573.07E-03		1.7814E+00
			248.00		572.01E-03		1.7751E+00
			249.00		567.39E-03		1.7798E+00
			250.00		563.76E-03		1.7782E+00
			251.00		561.73E-03		1.7814E+00
			252.00		559.06E-03		1.7735E+00
			253.00		554.96E-03		1.7767E+00
			254.00		549.85E-03		1.7798E+00
			255.00		550.78E-03		1.7735E+00
			256.00		545.72E-03		1.7798E+00
			257.00		541.11E-03		1.7814E+00
			258.00		538.98E-03		1.7782E+00
			259.00		535.56E-03		1.7862E+00
			260.00		533.34E-03		1.7798E+00
			261.00		530.25E-03		1.7798E+00
			262.00		526.22E-03		1.7830E+00
			263.00		527.06E-03		1.7767E+00
			264.00		521.07E-03		1.7830E+00
			265.00		520.86E-03		1.7767E+00
			266.00		516.84E-03		1.7798E+00
			267.00		514.20E-03		1.7782E+00
			268.00		511.35E-03		1.7846E+00
			269.00		507.68E-03		1.7830E+00
			270.00		505.62E-03		1.7830E+00
			271.00		503.11E-03		1.7846E+00
			272.00		500.19E-03		1.7767E+00
			273.00		499.47E-03		1.7608E+00
			274.00		494.87E-03		1.7735E+00
			275.00		490.61E-03		1.7814E+00
			276.00		489.85E-03		1.7767E+00
			277.00		487.35E-03		1.7782E+00
			278.00		484.52E-03		1.7735E+00
			279.00		481.84E-03		1.7719E+00
			280.00		477.39E-03		1.7846E+00
			281.00		476.85E-03		1.7751E+00
			282.00		474.35E-03		1.7767E+00
			283.00		469.16E-03		1.7846E+00
			284.00		466.49E-03		1.7830E+00
			285.00		464.63E-03		1.7862E+00
			286.00		462.37E-03		1.7830E+00
			287.00		462.15E-03		1.7640E+00
			288.00		457.41E-03		1.7782E+00
			289.00		456.56E-03		1.7735E+00
			290.00		451.85E-03		1.7798E+00
			291.00		448.98E-03		1.7830E+00
			292.00		446.92E-03		1.7830E+00
			293.00		445.42E-03		1.7767E+00
			294.00		442.95E-03		1.7782E+00
			295.00		441.28E-03		1.7767E+00
			296.00		439.22E-03		1.7767E+00
			297.00		437.15E-03		1.7767E+00
			298.00		433.15E-03		1.7846E+00
			299.00		431.86E-03		1.7814E+00
			300.00		429.68E-03		1.7862E+00
		END_DATA
	END_SCAN  1
END_SCAN_DATA
