# TOPAS Version: 4.0
# Parameter File: Varian_TrueBeam_6MV.txt
# Results for scorer: PDDLineCylinder
# Scored in component: PDDLineCylinder
# R in 1 bin  of 0.275 cm
# Phi in 1 bin  of 360 deg
# Z in 320 bins of 0.1 cm
# DoseToMedium ( Gy ) : Sum   
0, 0, 0, 1.487997565163823e-07
0, 0, 1, 1.785338952231541e-07
0, 0, 2, 1.0879288936394e-07
0, 0, 3, 1.131364300022142e-07
0, 0, 4, 1.619974909772282e-07
0, 0, 5, 1.408364340704793e-07
0, 0, 6, 1.996601355358507e-07
0, 0, 7, 9.825757274484204e-08
0, 0, 8, 7.953975966756843e-08
0, 0, 9, 1.315296174198011e-07
0, 0, 10, 1.102940174746436e-07
0, 0, 11, 1.046774684709817e-07
0, 0, 12, 8.029036990819804e-08
0, 0, 13, 9.113358601098298e-08
0, 0, 14, 9.342613083163087e-08
0, 0, 15, 1.176970911842545e-07
0, 0, 16, 1.016756598914981e-07
0, 0, 17, 1.062487982039784e-07
0, 0, 18, 1.404418270567476e-07
0, 0, 19, 1.588445002198569e-07
0, 0, 20, 4.314225634516333e-07
0, 0, 21, 6.688951543765143e-07
0, 0, 22, 7.901429626144818e-07
0, 0, 23, 8.970520752882294e-07
0, 0, 24, 9.049433060681622e-07
0, 0, 25, 9.349799370284018e-07
0, 0, 26, 1.038223899740842e-06
0, 0, 27, 9.866937489277916e-07
0, 0, 28, 9.614559530746192e-07
0, 0, 29, 1.021884827423492e-06
0, 0, 30, 1.130558189288422e-06
0, 0, 31, 1.148066189671226e-06
0, 0, 32, 1.110816242544388e-06
0, 0, 33, 1.065112769538246e-06
0, 0, 34, 1.006380898616044e-06
0, 0, 35, 1.113722646550741e-06
0, 0, 36, 1.157716496891226e-06
0, 0, 37, 1.082684661923849e-06
0, 0, 38, 1.076827516044432e-06
0, 0, 39, 1.10777034478815e-06
0, 0, 40, 9.848083664110163e-07
0, 0, 41, 1.155789846052357e-06
0, 0, 42, 1.056795781551045e-06
0, 0, 43, 1.106549120777345e-06
0, 0, 44, 1.042849589794059e-06
0, 0, 45, 1.091938884201227e-06
0, 0, 46, 1.021331172523787e-06
0, 0, 47, 9.719649369799299e-07
0, 0, 48, 9.908321771945339e-07
0, 0, 49, 9.996826975111617e-07
0, 0, 50, 9.63397042141878e-07
0, 0, 51, 1.025749043037649e-06
0, 0, 52, 1.022286028273811e-06
0, 0, 53, 9.536627771922213e-07
0, 0, 54, 9.842905228651944e-07
0, 0, 55, 9.66819698078325e-07
0, 0, 56, 1.021691559799365e-06
0, 0, 57, 1.003930719889468e-06
0, 0, 58, 9.334217452305893e-07
0, 0, 59, 9.68986569205299e-07
0, 0, 60, 9.662257980380673e-07
0, 0, 61, 1.075515456250287e-06
0, 0, 62, 9.78674620455422e-07
0, 0, 63, 9.121007451540208e-07
0, 0, 64, 9.109614325097937e-07
0, 0, 65, 8.925641736823309e-07
0, 0, 66, 9.652758308220655e-07
0, 0, 67, 9.168830956696183e-07
0, 0, 68, 7.969256330397911e-07
0, 0, 69, 9.096065696212463e-07
0, 0, 70, 8.843841783345852e-07
0, 0, 71, 8.912559223972494e-07
0, 0, 72, 8.812359055809793e-07
0, 0, 73, 9.002533261082135e-07
0, 0, 74, 9.027554597196286e-07
0, 0, 75, 8.510097018188389e-07
0, 0, 76, 8.181429507203575e-07
0, 0, 77, 8.215981779358117e-07
0, 0, 78, 8.67457231379376e-07
0, 0, 79, 8.848137440509163e-07
0, 0, 80, 8.96873757483263e-07
0, 0, 81, 8.700367857272795e-07
0, 0, 82, 8.677748155605514e-07
0, 0, 83, 9.393743312102742e-07
0, 0, 84, 8.177922268259863e-07
0, 0, 85, 7.185275308074779e-07
0, 0, 86, 7.72240241531108e-07
0, 0, 87, 8.257734407379758e-07
0, 0, 88, 8.403104061471822e-07
0, 0, 89, 8.175553602995933e-07
0, 0, 90, 8.763161645219952e-07
0, 0, 91, 8.308972496706701e-07
0, 0, 92, 8.445560979453148e-07
0, 0, 93, 8.771684747443942e-07
0, 0, 94, 8.272094191852375e-07
0, 0, 95, 7.679811915295431e-07
0, 0, 96, 7.494779765693238e-07
0, 0, 97, 8.44658529786102e-07
0, 0, 98, 8.217819527089887e-07
0, 0, 99, 8.098870125650137e-07
0, 0, 100, 7.77653781369736e-07
0, 0, 101, 8.030848448470351e-07
0, 0, 102, 8.242451485784841e-07
0, 0, 103, 7.637814860572689e-07
0, 0, 104, 7.943297077872558e-07
0, 0, 105, 7.579286034342658e-07
0, 0, 106, 7.533685675298329e-07
0, 0, 107, 7.109869670784974e-07
0, 0, 108, 7.560728931821359e-07
0, 0, 109, 7.406309805446654e-07
0, 0, 110, 7.201876428553078e-07
0, 0, 111, 7.191830491137807e-07
0, 0, 112, 7.519942641920352e-07
0, 0, 113, 7.331963161050226e-07
0, 0, 114, 7.112205935300153e-07
0, 0, 115, 6.690523264296644e-07
0, 0, 116, 7.303565325855743e-07
0, 0, 117, 7.687807510592393e-07
0, 0, 118, 7.434604754052998e-07
0, 0, 119, 7.006640316831181e-07
0, 0, 120, 6.567706236637605e-07
0, 0, 121, 6.639651246587164e-07
0, 0, 122, 7.041943490548874e-07
0, 0, 123, 7.224407454486936e-07
0, 0, 124, 7.258748269123316e-07
0, 0, 125, 6.189524697219895e-07
0, 0, 126, 6.493765454251843e-07
0, 0, 127, 6.664527063549031e-07
0, 0, 128, 6.504016596409201e-07
0, 0, 129, 7.057290645207104e-07
0, 0, 130, 7.705161806370597e-07
0, 0, 131, 7.548281359959219e-07
0, 0, 132, 7.220385214168346e-07
0, 0, 133, 6.34226125839632e-07
0, 0, 134, 6.467300295298628e-07
0, 0, 135, 6.882678462716285e-07
0, 0, 136, 6.922016950738907e-07
0, 0, 137, 6.643290930696821e-07
0, 0, 138, 7.162627753132256e-07
0, 0, 139, 6.397166316673975e-07
0, 0, 140, 6.157061420708487e-07
0, 0, 141, 6.439861408580327e-07
0, 0, 142, 6.78317860547395e-07
0, 0, 143, 6.422864089472569e-07
0, 0, 144, 6.503605618490838e-07
0, 0, 145, 6.407001365005272e-07
0, 0, 146, 6.711144351356779e-07
0, 0, 147, 6.411861477317871e-07
0, 0, 148, 5.866151582267776e-07
0, 0, 149, 5.713940822715813e-07
0, 0, 150, 5.20157016126177e-07
0, 0, 151, 5.461335490508645e-07
0, 0, 152, 5.722129685636901e-07
0, 0, 153, 5.167646577319829e-07
0, 0, 154, 5.415602117864182e-07
0, 0, 155, 5.267627329885727e-07
0, 0, 156, 5.665796152243274e-07
0, 0, 157, 5.319112119650526e-07
0, 0, 158, 5.533363491849741e-07
0, 0, 159, 5.366892423808167e-07
0, 0, 160, 5.520673198589066e-07
0, 0, 161, 4.814862109014939e-07
0, 0, 162, 5.239060669737228e-07
0, 0, 163, 5.897139772059745e-07
0, 0, 164, 5.86342991937272e-07
0, 0, 165, 5.355983034860401e-07
0, 0, 166, 5.288883357934537e-07
0, 0, 167, 6.140253390185535e-07
0, 0, 168, 5.53228971966746e-07
0, 0, 169, 5.084665986032633e-07
0, 0, 170, 5.420790785137797e-07
0, 0, 171, 5.724617722080438e-07
0, 0, 172, 5.163929586160521e-07
0, 0, 173, 4.798239388037473e-07
0, 0, 174, 5.166134542378131e-07
0, 0, 175, 5.029853582527721e-07
0, 0, 176, 4.97630708196084e-07
0, 0, 177, 4.709581276074459e-07
0, 0, 178, 5.052672236161015e-07
0, 0, 179, 4.955591634825396e-07
0, 0, 180, 5.006031642551534e-07
0, 0, 181, 5.172126407160249e-07
0, 0, 182, 5.011792723053077e-07
0, 0, 183, 4.72256971306706e-07
0, 0, 184, 4.701382749772165e-07
0, 0, 185, 4.696218525168661e-07
0, 0, 186, 4.580732877457194e-07
0, 0, 187, 4.684898442519625e-07
0, 0, 188, 4.494350775985367e-07
0, 0, 189, 4.894978928859928e-07
0, 0, 190, 4.880939741269685e-07
0, 0, 191, 5.198512553761248e-07
0, 0, 192, 4.877481387666194e-07
0, 0, 193, 4.528320118879492e-07
0, 0, 194, 4.516076899108157e-07
0, 0, 195, 4.375299624825857e-07
0, 0, 196, 4.403747198011843e-07
0, 0, 197, 4.403341904435365e-07
0, 0, 198, 4.296612132748123e-07
0, 0, 199, 4.530571402483474e-07
0, 0, 200, 4.634058257124707e-07
0, 0, 201, 4.801547106580983e-07
0, 0, 202, 4.198534782062779e-07
0, 0, 203, 4.315102160035167e-07
0, 0, 204, 4.22730295213114e-07
0, 0, 205, 3.957660794640105e-07
0, 0, 206, 4.052514555041853e-07
0, 0, 207, 4.303399521177198e-07
0, 0, 208, 4.493768130942044e-07
0, 0, 209, 4.768997996507096e-07
0, 0, 210, 4.299073737001891e-07
0, 0, 211, 3.585865044897218e-07
0, 0, 212, 3.886420643084421e-07
0, 0, 213, 3.715371406087797e-07
0, 0, 214, 4.150905965616403e-07
0, 0, 215, 4.614449267137388e-07
0, 0, 216, 4.166473104305624e-07
0, 0, 217, 4.093791119430534e-07
0, 0, 218, 4.326549856159545e-07
0, 0, 219, 3.740409226793417e-07
0, 0, 220, 3.606627956287412e-07
0, 0, 221, 3.815941624907282e-07
0, 0, 222, 4.040946919303678e-07
0, 0, 223, 4.098886563497217e-07
0, 0, 224, 4.627226246611826e-07
0, 0, 225, 3.813296700627689e-07
0, 0, 226, 4.063653307184723e-07
0, 0, 227, 3.954858414090268e-07
0, 0, 228, 4.018817492124072e-07
0, 0, 229, 3.658456648736319e-07
0, 0, 230, 3.978699680828868e-07
0, 0, 231, 3.736108169505314e-07
0, 0, 232, 3.930288698938966e-07
0, 0, 233, 3.483602597498248e-07
0, 0, 234, 3.798377008479292e-07
0, 0, 235, 4.143963110436744e-07
0, 0, 236, 3.677473330299108e-07
0, 0, 237, 3.593156350234494e-07
0, 0, 238, 3.772160823700688e-07
0, 0, 239, 3.298804642781761e-07
0, 0, 240, 3.18399685284021e-07
0, 0, 241, 3.145916309676977e-07
0, 0, 242, 3.546581410773797e-07
0, 0, 243, 3.632401899267279e-07
0, 0, 244, 3.708524900503107e-07
0, 0, 245, 3.46325805367087e-07
0, 0, 246, 2.972528818645515e-07
0, 0, 247, 3.546751656813285e-07
0, 0, 248, 4.065322229962476e-07
0, 0, 249, 3.632274001574842e-07
0, 0, 250, 3.731941546902817e-07
0, 0, 251, 3.313465981591435e-07
0, 0, 252, 3.02908944149749e-07
0, 0, 253, 3.018162715306971e-07
0, 0, 254, 3.195897875230003e-07
0, 0, 255, 2.892478505600593e-07
0, 0, 256, 2.878875591250107e-07
0, 0, 257, 3.191236714883416e-07
0, 0, 258, 3.465972895355662e-07
0, 0, 259, 3.124872591797612e-07
0, 0, 260, 2.764957969247916e-07
0, 0, 261, 2.736052238105913e-07
0, 0, 262, 2.903092308770283e-07
0, 0, 263, 3.015749996393424e-07
0, 0, 264, 2.931163862740505e-07
0, 0, 265, 3.170195270740805e-07
0, 0, 266, 2.71318612021787e-07
0, 0, 267, 2.930045752691512e-07
0, 0, 268, 3.074633809774241e-07
0, 0, 269, 2.966073111565493e-07
0, 0, 270, 3.012943068370078e-07
0, 0, 271, 3.107442694272322e-07
0, 0, 272, 3.043299443561409e-07
0, 0, 273, 3.249865869747737e-07
0, 0, 274, 2.934886538241699e-07
0, 0, 275, 2.474048983458488e-07
0, 0, 276, 3.045891787678556e-07
0, 0, 277, 2.881077421079681e-07
0, 0, 278, 3.060476103655674e-07
0, 0, 279, 2.623383181798999e-07
0, 0, 280, 3.036963107660995e-07
0, 0, 281, 3.071539254051459e-07
0, 0, 282, 3.019311236585054e-07
0, 0, 283, 2.948854103124177e-07
0, 0, 284, 2.786050572467502e-07
0, 0, 285, 3.094359897204413e-07
0, 0, 286, 2.745914287061169e-07
0, 0, 287, 2.386751418725908e-07
0, 0, 288, 2.757932691110909e-07
0, 0, 289, 2.629729465297714e-07
0, 0, 290, 2.659836297880247e-07
0, 0, 291, 2.816342998812615e-07
0, 0, 292, 2.664015426034894e-07
0, 0, 293, 2.755545835952944e-07
0, 0, 294, 2.955181628294667e-07
0, 0, 295, 2.587800906894699e-07
0, 0, 296, 2.352146566408919e-07
0, 0, 297, 2.51691375297014e-07
0, 0, 298, 2.857839831449382e-07
0, 0, 299, 2.558209928338329e-07
0, 0, 300, 2.103821401533423e-07
0, 0, 301, 2.505586849110841e-07
0, 0, 302, 2.298713894788307e-07
0, 0, 303, 2.282132953723703e-07
0, 0, 304, 2.687702362891287e-07
0, 0, 305, 2.369205702734689e-07
0, 0, 306, 2.112355446115544e-07
0, 0, 307, 2.234666709455269e-07
0, 0, 308, 2.30169263204516e-07
0, 0, 309, 2.303259805103153e-07
0, 0, 310, 2.144432613704339e-07
0, 0, 311, 2.036640012192947e-07
0, 0, 312, 2.16948137676809e-07
0, 0, 313, 2.08491272246647e-07
0, 0, 314, 1.858068117144285e-07
0, 0, 315, 2.30697835945648e-07
0, 0, 316, 2.347868104379813e-07
0, 0, 317, 2.260000826481701e-07
0, 0, 318, 2.619695465000405e-07
0, 0, 319, 2.340158715696816e-07
